44 52
3854.708 L/n
6
  551520.770  1847532.970
  551576.480  1847609.290
  551563.550  1847628.390
  551528.820  1847613.050
  551501.770  1847593.300
  551498.650  1847550.890
end
47 52
4951.175 L/n
11
  551526.120  1847524.780
  551632.280  1847548.170
  551632.280  1847548.170
  551639.650  1847582.760
  551618.530  1847586.440
  551616.690  1847568.210
  551576.480  1847609.290
  551576.480  1847609.290
  551520.770  1847532.970
  551520.770  1847532.970
  551526.120  1847524.780
end
17 52
147677.916 L/n
140
  551681.770  1848136.690
  551667.710  1848072.110
  551637.590  1848033.300
  551637.590  1848033.300
  551593.330  1847963.110
  551577.390  1847940.940
  551577.390  1847940.940
  551540.160  1847902.120
  551540.160  1847902.120
  551508.240  1847868.850
  551529.660  1847832.010
  551577.600  1847854.260
  551577.600  1847854.260
  551634.400  1847885.750
  551637.920  1847898.670
  551637.920  1847898.670
  551625.390  1847935.530
  551627.100  1847963.190
  551676.760  1848007.580
  551676.760  1848007.580
  551690.940  1848022.370
  551717.520  1848055.630
  551722.870  1848048.270
  551740.670  1848039.090
  551726.500  1848018.770
  551726.500  1848018.770
  551703.450  1847996.580
  551705.280  1847974.450
  551685.900  1847904.320
  551717.880  1847908.090
  551774.550  1847993.060
  551774.550  1847993.060
  551774.460  1848028.100
  551792.200  1848044.750
  551852.750  1847995.100
  551833.270  1847965.540
  551842.180  1847956.340
  551894.790  1847969.210
  551894.790  1847969.210
  551900.240  1847959.670
  551900.240  1847959.670
  551860.460  1847922.920
  551870.530  1847905.720
  551870.530  1847905.720
  551886.660  1847861.230
  551886.660  1847861.230
  551883.960  1847819.170
  551883.960  1847819.170
  551857.350  1847788.200
  551818.290  1847776.700
  551818.290  1847776.700
  551794.170  1847772.980
  551794.170  1847772.980
  551769.730  1847770.220
  551774.910  1847744.940
  551774.910  1847744.940
  551749.180  1847768.620
  551749.180  1847768.620
  551726.480  1847776.420
  551726.480  1847776.420
  551695.860  1847786.950
  551695.860  1847786.950
  551699.940  1847801.000
  551661.270  1847797.290
  551661.270  1847797.290
  551625.730  1847793.510
  551607.980  1847786.090
  551604.480  1847763.950
  551632.930  1847756.650
  551638.350  1847721.620
  551657.880  1847729.040
  551657.880  1847729.040
  551690.960  1847741.070
  551691.450  1847755.280
  551691.450  1847755.280
  551715.150  1847748.010
  551734.920  1847738.590
  551745.920  1847731.590
  551745.920  1847731.590
  551739.130  1847714.670
  551739.130  1847714.670
  551726.070  1847688.060
  551744.770  1847681.630
  551744.770  1847681.630
  551744.410  1847679.860
  551749.970  1847668.150
  551751.780  1847641.860
  551739.290  1847626.820
  551733.670  1847603.790
  551732.520  1847574.300
  551732.520  1847574.300
  551696.790  1847579.690
  551650.680  1847556.200
  551652.440  1847545.720
  551652.440  1847545.720
  551651.500  1847534.360
  551651.500  1847534.360
  551649.130  1847505.580
  551649.130  1847505.580
  551648.860  1847502.280
  551648.860  1847502.280
  551640.690  1847542.540
  551632.280  1847548.170
  551632.280  1847548.170
  551639.650  1847582.760
  551618.530  1847586.440
  551616.690  1847568.210
  551576.480  1847609.290
  551576.480  1847609.290
  551563.550  1847628.390
  551528.830  1847613.050
  551501.770  1847593.300
  551498.650  1847550.890
  551498.650  1847550.890
  551446.290  1847516.820
  551446.290  1847516.820
  551401.250  1847492.760
  551373.490  1847457.170
  551373.490  1847457.170
  551343.270  1847464.310
  551343.270  1847464.310
  551375.970  1847521.710
  551403.310  1847525.350
  551447.570  1847539.460
  551490.430  1847595.980
  551487.490  1847722.450
  551445.920  1847870.410
  551416.900  1847890.260
  551410.690  1847911.210
  551410.690  1847911.210
  551412.140  1847942.350
  551412.140  1847942.350
  551419.200  1847938.710
  551433.390  1847951.660
  551458.070  1848036.560
  551506.840  1848055.410
  551541.010  1848068.900
  551565.710  1848078.700
  551623.200  1848103.350
  551681.770  1848136.690
end
57 52
6210.522 L/n
11
  551498.650  1847550.890
  551520.770  1847532.970
  551520.770  1847532.970
  551526.120  1847524.780
  551526.120  1847524.780
  551536.710  1847455.130
  551536.710  1847455.130
  551479.500  1847445.630
  551446.290  1847516.820
  551446.290  1847516.820
  551498.650  1847550.890
end
