47 47
3654.742 LNC
6
  554702.810  1848653.700
  554748.090  1848571.170
  554698.660  1848651.450
  554645.390  1848632.870
  554670.440  1848564.700
  554691.750  1848572.130
end
48 47
6633.309 L/n
11
  554734.430  1848563.020
  554796.540  1848600.060
  554796.540  1848600.060
  554758.160  1848675.910
  554711.090  1848657.020
  554711.090  1848657.020
  554698.660  1848651.450
  554748.090  1848571.170
  554702.810  1848653.700
  554734.430  1848563.020
  554713.040  1848588.780
end
42 47
142920.419 L/n
158
  554645.390  1848632.870
  554698.660  1848651.450
  554698.660  1848651.450
  554711.090  1848657.020
  554711.090  1848657.020
  554758.160  1848675.910
  554796.540  1848600.060
  554796.540  1848600.060
  554814.610  1848612.330
  554814.610  1848612.330
  554869.400  1848605.790
  554869.400  1848605.790
  554905.620  1848629.590
  554905.620  1848629.590
  554916.440  1848636.700
  554981.050  1848559.970
  554981.050  1848559.970
  554971.180  1848551.730
  554971.180  1848551.730
  554937.390  1848523.520
  554937.390  1848523.520
  554997.630  1848506.530
  554997.630  1848506.530
  555002.970  1848484.800
  555002.970  1848484.800
  555024.850  1848496.470
  555024.850  1848496.470
  555038.290  1848503.640
  555038.290  1848503.640
  555077.310  1848523.870
  555087.710  1848509.070
  555105.740  1848519.660
  555134.260  1848468.300
  555196.130  1848484.940
  555196.130  1848484.940
  555199.950  1848496.140
  555189.250  1848509.030
  555189.210  1848525.620
  555214.120  1848512.780
  555237.200  1848523.900
  555237.200  1848523.900
  555263.090  1848491.790
  555263.090  1848491.790
  555260.980  1848513.630
  555260.980  1848513.630
  555284.000  1848538.120
  555284.000  1848538.120
  555257.600  1848562.440
  555257.600  1848562.440
  555282.010  1848590.220
  555315.610  1848576.460
  555315.610  1848576.460
  555316.540  1848577.760
  555337.490  1848599.060
  555342.170  1848612.660
  555342.170  1848612.660
  555338.070  1848629.500
  555338.070  1848629.500
  555281.450  1848618.900
  555281.450  1848618.900
  555275.540  1848617.860
  555275.540  1848617.860
  555248.110  1848613.110
  555186.390  1848617.660
  555186.390  1848617.660
  555191.740  1848661.260
  555191.740  1848661.260
  555217.870  1848680.210
  555217.870  1848680.210
  555221.350  1848701.570
  555221.350  1848701.570
  555198.870  1848713.410
  555198.870  1848713.410
  555179.830  1848731.340
  555179.830  1848731.340
  555183.990  1848765.140
  555183.990  1848765.140
  555234.050  1848804.330
  555234.050  1848804.330
  555236.500  1848806.250
  555236.500  1848806.250
  555238.450  1848809.290
  555238.450  1848809.290
  555265.290  1848851.060
  555265.290  1848851.060
  555264.170  1848854.420
  555264.170  1848854.420
  555254.240  1848871.830
  555254.240  1848871.830
  555254.070  1848872.050
  555254.070  1848872.050
  555176.920  1848825.230
  555176.920  1848825.230
  555140.540  1848827.990
  555140.540  1848827.990
  555104.640  1848849.930
  555104.640  1848849.930
  555068.430  1848832.860
  555068.430  1848832.860
  555077.450  1848743.820
  555077.450  1848743.820
  555103.840  1848670.950
  555057.670  1848652.380
  555045.120  1848694.770
  555045.120  1848694.770
  555014.930  1848685.470
  554986.120  1848832.940
  554986.120  1848832.940
  555013.950  1848868.090
  555013.950  1848868.090
  554990.850  1848927.750
  554990.850  1848927.750
  554982.770  1848925.890
  554982.770  1848925.890
  554973.670  1848951.770
  554973.670  1848951.770
  554970.600  1848951.100
  554932.850  1848945.940
  554932.850  1848945.940
  554914.780  1848941.640
  554914.780  1848941.640
  554932.220  1848907.000
  554932.220  1848907.000
  554911.310  1848893.610
  554911.310  1848893.610
  554893.540  1848893.560
  554870.460  1848882.440
  554863.320  1848895.330
  554863.320  1848895.330
  554864.070  1848903.340
  554864.070  1848903.340
  554825.710  1848846.140
  554825.710  1848846.140
  554836.490  1848836.400
  554820.580  1848803.160
  554854.560  1848722.100
  554833.230  1848722.040
  554817.180  1848742.290
  554790.490  1848753.280
  554790.490  1848753.280
  554762.160  1848795.060
  554762.160  1848795.060
  554746.290  1848787.040
  554746.290  1848787.040
  554682.290  1848770.710
  554675.120  1848755.730
  554682.240  1848706.790
  554680.140  1848689.040
  554655.340  1848673.100
  554619.240  1848643.520
  554619.240  1848643.520
  554603.120  1848643.120
  554603.120  1848643.120
  554587.060  1848648.120
  554587.060  1848648.120
  554599.220  1848618.000
  554599.220  1848618.000
  554645.390  1848632.870
end
52 47
5626.340 L/n
15
  554670.440  1848564.700
  554645.390  1848632.870
  554645.390  1848632.870
  554599.220  1848618.000
  554599.220  1848618.000
  554574.930  1848516.800
  554574.930  1848516.800
  554599.320  1848517.310
  554597.630  1848542.380
  554597.630  1848542.380
  554622.520  1848538.750
  554622.520  1848538.750
  554617.150  1848553.490
  554617.150  1848553.490
  554670.440  1848564.700
end
56 47
3333.859 L/n
12
  554714.940  1848538.990
  554691.750  1848572.130
  554691.750  1848572.130
  554670.440  1848564.700
  554670.440  1848564.700
  554617.150  1848553.490
  554617.150  1848553.490
  554622.520  1848538.750
  554622.520  1848538.750
  554627.930  1848511.100
  554627.930  1848511.100
  554714.940  1848538.990
end
57 47
5256.478 L/n
14
  554741.690  1848505.860
  554795.020  1848502.310
  554795.020  1848502.310
  554810.880  1848553.990
  554810.880  1848553.990
  554734.430  1848563.020
  554734.430  1848563.020
  554713.040  1848588.780
  554713.040  1848588.780
  554691.750  1848572.130
  554691.750  1848572.130
  554714.940  1848538.990
  554714.940  1848538.990
  554741.690  1848505.860
end
