47 48
2902.769 LNC
4
  555704.930  1848791.700
  555618.290  1848738.550
  555665.320  1848725.900
  555725.640  1848770.320
end
43 48
3116.306 L/n
9
  555704.930  1848791.700
  555683.470  1848813.860
  555683.470  1848813.860
  555588.200  1848750.720
  555588.200  1848750.720
  555590.630  1848745.990
  555618.290  1848738.550
  555618.290  1848738.550
  555704.930  1848791.700
end
53 48
156070.898 L/n
123
  555424.780  1848845.080
  555428.000  1848839.730
  555433.840  1848818.770
  555433.840  1848818.770
  555443.620  1848783.660
  555443.620  1848783.660
  555451.640  1848754.870
  555453.700  1848748.440
  555436.000  1848744.640
  555381.940  1848744.600
  555386.560  1848732.430
  555386.560  1848732.430
  555426.070  1848717.630
  555428.370  1848682.520
  555335.240  1848684.290
  555335.240  1848684.290
  555342.580  1848653.490
  555348.140  1848630.380
  555348.140  1848630.380
  555363.590  1848630.260
  555385.510  1848642.730
  555490.640  1848670.460
  555523.130  1848636.160
  555512.400  1848604.690
  555457.990  1848583.670
  555443.210  1848515.250
  555443.210  1848515.250
  555462.270  1848508.550
  555457.110  1848483.770
  555457.110  1848483.770
  555489.710  1848476.610
  555497.940  1848476.530
  555497.940  1848476.530
  555539.040  1848476.140
  555574.890  1848464.190
  555572.410  1848439.320
  555572.410  1848439.320
  555657.380  1848446.220
  555657.380  1848446.220
  555695.770  1848493.540
  555760.330  1848548.170
  555760.330  1848548.170
  555715.170  1848573.110
  555727.420  1848588.290
  555727.420  1848588.290
  555743.520  1848608.230
  555754.060  1848656.210
  555773.590  1848661.790
  555784.080  1848730.060
  555886.610  1848661.290
  555886.610  1848661.290
  555887.640  1848662.210
  555931.900  1848704.700
  555931.900  1848704.700
  555874.900  1848785.470
  555874.900  1848785.470
  555867.730  1848805.740
  555860.590  1848816.790
  555844.570  1848825.970
  555844.570  1848825.970
  555826.710  1848859.120
  555887.100  1848874.030
  555887.100  1848874.030
  555949.250  1848896.330
  555949.250  1848896.330
  555968.400  1848925.070
  555968.400  1848925.070
  555966.420  1848926.780
  555963.720  1848936.440
  555963.720  1848936.440
  555963.090  1848944.370
  555963.090  1848944.370
  555930.420  1848939.040
  555913.560  1848950.800
  555913.560  1848950.800
  555913.610  1848931.270
  555872.750  1848925.630
  555865.630  1848929.300
  555860.330  1848916.380
  555860.330  1848916.380
  555858.590  1848901.620
  555817.730  1848895.980
  555810.670  1848875.670
  555810.690  1848870.140
  555780.470  1848870.060
  555780.470  1848870.060
  555767.770  1848969.620
  555767.770  1848969.620
  555765.710  1848969.490
  555765.710  1848969.490
  555718.300  1848937.140
  555692.150  1848931.250
  555584.570  1848925.570
  555584.570  1848925.570
  555602.670  1848899.110
  555602.670  1848899.110
  555631.180  1848867.830
  555683.470  1848813.860
  555683.470  1848813.860
  555704.930  1848791.700
  555704.930  1848791.700
  555725.640  1848770.320
  555665.330  1848725.900
  555618.290  1848738.550
  555618.290  1848738.550
  555590.630  1848745.990
  555588.200  1848750.720
  555588.200  1848750.720
  555556.680  1848812.300
  555556.610  1848839.960
  555540.590  1848849.140
  555538.690  1848895.250
  555558.260  1848887.920
  555558.260  1848887.920
  555545.620  1848925.300
  555545.620  1848925.300
  555473.150  1848925.120
  555399.250  1848917.610
  555366.890  1848906.430
  555366.890  1848906.430
  555414.920  1848861.440
  555414.920  1848861.440
  555424.780  1848845.080
end
