8 45
2479.312 LNC
5
  555146.180  1849471.490
  555158.640  1849465.990
  555170.980  1849502.910
  555129.110  1849537.430
  555112.420  1849469.560
end
22 45
41365.768 L/n
31
  555320.560  1849394.490
  555281.400  1849418.360
  555281.400  1849418.360
  555198.570  1849450.500
  555198.570  1849450.500
  555158.640  1849465.990
  555158.640  1849465.990
  555146.180  1849471.490
  555146.180  1849471.490
  555112.420  1849469.560
  555112.420  1849469.560
  555075.040  1849493.440
  555075.040  1849493.440
  555059.080  1849480.490
  555091.190  1849432.620
  555091.190  1849432.620
  555085.970  1849423.280
  555085.970  1849423.280
  555066.420  1849388.290
  555066.420  1849388.290
  555075.520  1849307.170
  555075.520  1849307.170
  555278.250  1849261.590
  555278.250  1849261.590
  555327.930  1849294.910
  555327.930  1849294.910
  555343.900  1849302.330
  555336.740  1849324.440
  555313.530  1849364.960
  555313.530  1849364.960
  555320.560  1849394.490
end
12 45
1724.733 L/n
8
  555198.570  1849450.500
  555213.960  1849485.930
  555213.960  1849485.930
  555170.980  1849502.910
  555170.980  1849502.910
  555158.640  1849465.990
  555158.640  1849465.990
  555198.570  1849450.500
end
9 45
6717.351 L/n
13
  555067.830  1849559.680
  555129.110  1849537.430
  555129.110  1849537.430
  555112.420  1849469.560
  555112.420  1849469.560
  555075.040  1849493.440
  555075.040  1849493.440
  555059.080  1849480.490
  555091.190  1849432.620
  555091.190  1849432.620
  555012.820  1849498.810
  555012.820  1849498.810
  555067.830  1849559.680
end
22 45
41365.768 L/n
31
  555320.560  1849394.490
  555281.400  1849418.360
  555281.400  1849418.360
  555198.570  1849450.500
  555198.570  1849450.500
  555158.640  1849465.990
  555158.640  1849465.990
  555146.180  1849471.490
  555146.180  1849471.490
  555112.420  1849469.560
  555112.420  1849469.560
  555075.040  1849493.440
  555075.040  1849493.440
  555059.080  1849480.490
  555091.190  1849432.620
  555091.190  1849432.620
  555085.970  1849423.280
  555085.970  1849423.280
  555066.420  1849388.290
  555066.420  1849388.290
  555075.520  1849307.170
  555075.520  1849307.170
  555278.250  1849261.590
  555278.250  1849261.590
  555327.930  1849294.910
  555327.930  1849294.910
  555343.900  1849302.330
  555336.740  1849324.440
  555313.530  1849364.960
  555313.530  1849364.960
  555320.560  1849394.490
end
